freq,val
4.0,-10.15
4.1,-9.68
4.2,-9.21
4.3,-8.74
4.4,-8.27
4.51,-7.81
4.62,-7.34
4.73,-6.88
4.84,-6.42
4.96,-5.97
5.08,-5.51
5.2,-5.06
5.33,-4.61
5.46,-4.17
5.59,-3.73
5.72,-3.29
5.86,-2.86
6.01,-2.43
6.15,-2.0
6.3,-1.58
6.45,-1.16
6.61,-0.76
6.77,-0.38
6.93,-0.01
7.1,0.35
7.27,0.69
7.45,1.02
7.63,1.34
7.81,1.65
8.0,1.96