freq,val
4.0,6.02
4.1,6.27
4.2,6.52
4.3,6.77
4.4,7.0
4.51,7.22
4.62,7.42
4.73,7.58
4.84,7.72
4.96,7.82
5.08,7.9
5.2,7.96
5.33,8.01
5.46,8.07
5.59,8.13
5.72,8.22
5.86,8.33
6.01,8.47
6.15,8.64
6.3,8.83
6.45,9.04
6.61,9.26
6.77,9.43
6.93,9.56
7.1,9.64
7.27,9.69
7.45,9.72
7.63,9.75
7.81,9.78
8.0,9.81