freq,val
4.0,9.42
4.15,9.52
4.3,9.61
4.46,9.71
4.63,9.8
4.8,9.89
4.98,9.98
5.16,10.07
5.36,10.16
5.55,10.24
5.76,10.32
5.98,10.39
6.2,10.46
6.43,10.53
6.67,10.59
6.91,10.65
7.17,10.69
7.44,10.73
7.71,10.77
8.0,10.79