freq,val
4.0,10.75
4.15,10.79
4.3,10.84
4.46,10.89
4.63,10.94
4.8,10.99
4.98,11.04
5.16,11.09
5.36,11.15
5.55,11.22
5.76,11.29
5.98,11.37
6.2,11.45
6.43,11.54
6.67,11.65
6.91,11.76
7.17,11.87
7.44,11.99
7.71,12.12
8.0,12.24