freq,val
4.0,9.86
4.15,10.0
4.3,10.13
4.46,10.27
4.63,10.42
4.8,10.56
4.98,10.7
5.16,10.84
5.36,10.98
5.55,11.12
5.76,11.27
5.98,11.41
6.2,11.55
6.43,11.69
6.67,11.83
6.91,11.98
7.17,12.12
7.44,12.27
7.71,12.42
8.0,12.57