freq,val
4.0,9.43
4.1,9.49
4.2,9.54
4.3,9.6
4.4,9.66
4.51,9.71
4.62,9.77
4.73,9.82
4.84,9.88
4.96,9.93
5.08,9.98
5.2,10.04
5.33,10.09
5.46,10.15
5.59,10.2
5.72,10.26
5.86,10.31
6.01,10.37
6.15,10.43
6.3,10.49
6.45,10.56
6.61,10.62
6.77,10.69
6.93,10.76
7.1,10.84
7.27,10.91
7.45,10.99
7.63,11.07
7.81,11.15
8.0,11.23