freq,val
4.0,6.66
4.15,7.1
4.3,7.54
4.46,7.96
4.63,8.33
4.8,8.64
4.98,8.87
5.16,9.04
5.36,9.19
5.55,9.35
5.76,9.56
5.98,9.85
6.2,10.21
6.43,10.64
6.67,11.09
6.91,11.43
7.17,11.67
7.44,11.83
7.71,11.98
8.0,12.15