freq,val
4.0,2.79
4.1,2.92
4.2,3.05
4.3,3.18
4.4,3.3
4.51,3.42
4.62,3.54
4.73,3.65
4.84,3.77
4.96,3.88
5.08,3.99
5.2,4.09
5.33,4.2
5.46,4.3
5.59,4.4
5.72,4.49
5.86,4.59
6.01,4.68
6.15,4.77
6.3,4.85
6.45,4.94
6.61,5.02
6.77,5.1
6.93,5.17
7.1,5.25
7.27,5.32
7.45,5.39
7.63,5.46
7.81,5.53
8.0,5.59