freq,val
4.0,4.46
4.1,4.4
4.2,4.34
4.3,4.26
4.4,4.18
4.51,4.09
4.62,4.0
4.73,3.9
4.84,3.81
4.96,3.73
5.08,3.65
5.2,3.58
5.33,3.52
5.46,3.48
5.59,3.46
5.72,3.45
5.86,3.46
6.01,3.5
6.15,3.56
6.3,3.65
6.45,3.77
6.61,3.92
6.77,4.11
6.93,4.32
7.1,4.57
7.27,4.85
7.45,5.16
7.63,5.48
7.81,5.82
8.0,6.15